 # k-point   energies(eV)                          k-distance(1/A)  k-vectors(1/A)
    1 -9.53783069 -9.46128902  8.72428902 10.31883069  0.000  0.000  0.000
    2 -9.53780989 -9.46126756  8.72427010 10.31880736  0.000  0.002  0.000
    3 -9.53774528 -9.46120087  8.72421129 10.31873486  0.002  0.004  0.000
    4 -9.53763908 -9.46109125  8.72411462 10.31861571  0.004  0.006  0.000
    5 -9.53748907 -9.46093640  8.72397808 10.31844739  0.006  0.009  0.000
    6 -9.53729746 -9.46073863  8.72380368 10.31823241  0.009  0.011  0.000
    7 -9.53706204 -9.46049562  8.72358939 10.31796827  0.011  0.013  0.000
    8 -9.53678503 -9.46020969  8.72333726 10.31765746  0.013  0.015  0.000
    9 -9.53646420 -9.45987853  8.72304524 10.31729750  0.015  0.017  0.000
   10 -9.53610178 -9.45950445  8.72271536 10.31689087  0.017  0.019  0.000
   11 -9.53569629 -9.45908590  8.72234628 10.31643591  0.019  0.021  0.000
   12 -9.53524773 -9.45862289  8.72193800 10.31593263  0.021  0.023  0.000
   13 -9.53475609 -9.45811542  8.72149050 10.31538101  0.023  0.026  0.000
   14 -9.53422286 -9.45756502  8.72100515 10.31478273  0.026  0.028  0.000
   15 -9.53364656 -9.45697017  8.72048060 10.31413613  0.028  0.030  0.000
   16 -9.53302719 -9.45633085  8.71991684 10.31344119  0.030  0.032  0.000
   17 -9.53236622 -9.45564860  8.71931523 10.31269959  0.032  0.034  0.000
   18 -9.53166218 -9.45492189  8.71867440 10.31190967  0.034  0.036  0.000
   19 -9.53091507 -9.45415072  8.71799438 10.31107141  0.036  0.038  0.000
   20 -9.53012489 -9.45333509  8.71727514 10.31018483  0.038  0.040  0.000
   21 -9.52929311 -9.45247653  8.71651806 10.30925158  0.040  0.043  0.000
   22 -9.52841826 -9.45157351  8.71572176 10.30827001  0.043  0.045  0.000
   23 -9.52750034 -9.45062603  8.71488626 10.30724011  0.045  0.047  0.000
   24 -9.52654083 -9.44963562  8.71401291 10.30616354  0.047  0.049  0.000
   25 -9.52553750 -9.44859998  8.71309967 10.30503781  0.049  0.051  0.000
   26 -9.52449258 -9.44752142  8.71214858 10.30386542  0.051  0.053  0.000
   27 -9.52340385 -9.44639763  8.71115760 10.30264387  0.053  0.055  0.000
   28 -9.52227353 -9.44523091  8.71012878 10.30137566  0.055  0.057  0.000
   29 -9.52110013 -9.44401973  8.70906074 10.30005911  0.057  0.060  0.000
   30 -9.51988440 -9.44276485  8.70795418 10.29869508  0.060  0.062  0.000
   31 -9.51862560 -9.44146551  8.70680841 10.29728271  0.062  0.064  0.000
   32 -9.51732521 -9.44012325  8.70562478 10.29582368  0.064  0.066  0.000
   33 -9.51598175 -9.43873653  8.70440195 10.29431632  0.066  0.068  0.000
   34 -9.51459595 -9.43730611  8.70314059 10.29276147  0.068  0.070  0.000
   35 -9.51316708 -9.43583123  8.70184002 10.29115829  0.070  0.072  0.000
   36 -9.51169588 -9.43431265  8.70050092 10.28950761  0.072  0.074  0.000
   37 -9.51018235 -9.43275038  8.69912329 10.28780943  0.074  0.077  0.000
   38 -9.50862648 -9.43114442  8.69770714 10.28606377  0.077  0.079  0.000
   39 -9.50702755 -9.42949399  8.69625177 10.28426977  0.079  0.081  0.000
   40 -9.50538702 -9.42780064  8.69475855 10.28242911  0.081  0.083  0.000
   41 -9.50370268 -9.42606206  8.69322545 10.28053929  0.083  0.085  0.000
   42 -9.50197675 -9.42428056  8.69165450 10.27860281  0.085  0.087  0.000
   43 -9.50020848 -9.42245535  8.69004501 10.27661883  0.087  0.089  0.000
   44 -9.49839715 -9.42058569  8.68839632 10.27458652  0.089  0.092  0.000
   45 -9.49654348 -9.41867233  8.68670910 10.27250672  0.092  0.094  0.000
   46 -9.49464822 -9.41671605  8.68498402 10.27038025  0.094  0.096  0.000
   47 -9.49270989 -9.41471530  8.68321974 10.26820546  0.096  0.098  0.000
   48 -9.49072998 -9.41267163  8.68141761 10.26598400  0.098  0.100  0.000
   49 -9.48870698 -9.41058350  8.67957626 10.26371422  0.100  0.102  0.000
   50 -9.48664092 -9.40845090  8.67769572 10.26139610  0.102  0.104  0.000
   51 -9.48453326 -9.40627538  8.67577731 10.25903133  0.104  0.106  0.000
   52 -9.48238402 -9.40405693  8.67382106 10.25661989  0.106  0.109  0.000
   53 -9.48019170 -9.40179402  8.67182560 10.25416013  0.109  0.111  0.000
   54 -9.47795631 -9.39948665  8.66979093 10.25165203  0.111  0.113  0.000
   55 -9.47567933 -9.39713635  8.66771840 10.24909728  0.113  0.115  0.000
   56 -9.47336076 -9.39474312  8.66560803 10.24649586  0.115  0.117  0.000
   57 -9.47099912 -9.39230544  8.66345845 10.24384611  0.117  0.119  0.000
   58 -9.46859515 -9.38982406  8.66127033 10.24114887  0.119  0.121  0.000
   59 -9.46614959 -9.38729975  8.65904437 10.23840497  0.121  0.123  0.000
   60 -9.46366170 -9.38473174  8.65677987 10.23561357  0.123  0.126  0.000
   61 -9.46113073 -9.38211928  8.65447617 10.23277384  0.126  0.128  0.000
   62 -9.45855818 -9.37946389  8.65213462 10.22988745  0.128  0.130  0.000
   63 -9.45594403 -9.37676557  8.64975521 10.22695440  0.130  0.132  0.000
   64 -9.45328682 -9.37402279  8.64733659 10.22397302  0.132  0.134  0.000
   65 -9.45058801 -9.37123709  8.64488012 10.22094498  0.134  0.136  0.000
   66 -9.44784762 -9.36840845  8.64238580 10.21787028  0.136  0.138  0.000
   67 -9.44506415 -9.36553536  8.63985227 10.21474724  0.138  0.140  0.000
   68 -9.44223910 -9.36261934  8.63728089 10.21157755  0.140  0.143  0.000
   69 -9.43937171 -9.35965962  8.63467098 10.20836036  0.143  0.145  0.000
   70 -9.43646274 -9.35665698  8.63202321 10.20509651  0.145  0.147  0.000
   71 -9.43351143 -9.35361064  8.62933691 10.20178516  0.147  0.149  0.000
   72 -9.43051854 -9.35052138  8.62661276 10.19842716  0.149  0.151  0.000
   73 -9.42748257 -9.34738766  8.62384941 10.19502082  0.151  0.153  0.000
   74 -9.42440650 -9.34421254  8.62104955 10.19156949  0.153  0.155  0.000
   75 -9.42128736 -9.34099296  8.61821049 10.18806983  0.155  0.158  0.000
   76 -9.41812589 -9.33772969  8.61533290 10.18452268  0.158  0.160  0.000
   77 -9.41492282 -9.33442349  8.61241745 10.18092886  0.160  0.162  0.000
   78 -9.41167892 -9.33107513  8.60946483 10.17728922  0.162  0.164  0.000
   79 -9.40839193 -9.32768231  8.60647300 10.17360124  0.164  0.166  0.000
   80 -9.40506336 -9.32424656  8.60344332 10.16986661  0.166  0.168  0.000
   81 -9.40169395 -9.32076865  8.60037646 10.16608614  0.168  0.170  0.000
   82 -9.39828146 -9.31724628  8.59727039 10.16225735  0.170  0.172  0.000
   83 -9.39482813 -9.31368176  8.59412715 10.15838273  0.172  0.175  0.000
   84 -9.39133321 -9.31007430  8.59094605 10.15446145  0.175  0.177  0.000
   85 -9.38779595 -9.30642315  8.58772643 10.15049268  0.177  0.179  0.000
   86 -9.38421711 -9.30272907  8.58446895 10.14647724  0.179  0.181  0.000
   87 -9.38059743 -9.29899284  8.58117429 10.14241597  0.181  0.183  0.000
   88 -9.37693467 -9.29521214  8.57784043 10.13830638  0.183  0.185  0.000
   89 -9.37323181 -9.29139005  8.57447006 10.13415179  0.185  0.187  0.000
   90 -9.36948661 -9.28752427  8.57106117 10.12994971  0.187  0.189  0.000
   91 -9.36569983 -9.28361556  8.56761443 10.12570096  0.189  0.192  0.000
   92 -9.36187221 -9.27966469  8.56413050 10.12140639  0.192  0.194  0.000
   93 -9.35800225 -9.27567012  8.56060805 10.11706432  0.194  0.196  0.000
   94 -9.35409071 -9.27163263  8.55704774 10.11267559  0.196  0.198  0.000
   95 -9.35013832 -9.26755298  8.55345026 10.10824103  0.198  0.200  0.000
   96 -9.34614434 -9.26343040  8.54981492 10.10375982  0.200  0.202  0.000
   97 -9.34210877 -9.25926490  8.54614174 10.09923194  0.202  0.204  0.000
   98 -9.33803236 -9.25505723  8.54243137 10.09465823  0.204  0.206  0.000
   99 -9.33391437 -9.25080664  8.53868315 10.09003786  0.206  0.209  0.000
  100 -9.32975552 -9.24651389  8.53489775 10.08537166  0.209  0.211  0.000
  101 -9.32555435 -9.24217745  8.53107383 10.08065797  0.211  0.213  0.000
  102 -9.32131307 -9.23779961  8.52721340 10.07589928  0.213  0.215  0.000
  103 -9.31702947 -9.23337808  8.52331445 10.07109310  0.215  0.217  0.000
  104 -9.31270576 -9.22891515  8.51937899 10.06624192  0.217  0.219  0.000
  105 -9.30833972 -9.22440854  8.51540500 10.06134325  0.219  0.221  0.000
  106 -9.30393358 -9.21986053  8.51139452 10.05639959  0.221  0.223  0.000
  107 -9.29948585 -9.21526959  8.50734618 10.05140926  0.223  0.226  0.000
  108 -9.29499653 -9.21063573  8.50325999 10.04637227  0.226  0.228  0.000
  109 -9.29046786 -9.20596124  8.49913797 10.04129112  0.228  0.230  0.000
  110 -9.28589611 -9.20124229  8.49497675 10.03616165  0.230  0.232  0.000
  111 -9.28128500 -9.19648271  8.49077970 10.03098801  0.232  0.234  0.000
  112 -9.27663230 -9.19168021  8.48654480 10.02576771  0.234  0.236  0.000
  113 -9.27193876 -9.18683555  8.48227273 10.02050158  0.236  0.238  0.000
  114 -9.26720438 -9.18194873  8.47796348 10.01518963  0.238  0.241  0.000
  115 -9.26242915 -9.17701975  8.47361705 10.00983185  0.241  0.243  0.000
  116 -9.25761307 -9.17204860  8.46923344 10.00442824  0.243  0.245  0.000
  117 -9.25275615 -9.16703531  8.46481266  9.99897880  0.245  0.247  0.000
  118 -9.24785913 -9.16198061  8.46035538  9.99348437  0.247  0.249  0.000
  119 -9.24292052 -9.15688299  8.45586024  9.98794327  0.249  0.251  0.000
  120 -9.23794181 -9.15174398  8.45132861  9.98235719  0.251  0.253  0.000
  121 -9.23292151 -9.14656205  8.44675912  9.97672444  0.253  0.255  0.000
  122 -9.22786111 -9.14133872  8.44215313  9.97104670  0.255  0.258  0.000
  123 -9.22276061 -9.13607399  8.43751064  9.96532396  0.258  0.260  0.000
  124 -9.21761926 -9.13076711  8.43283098  9.95955540  0.260  0.262  0.000
  125 -9.21243782 -9.12541884  8.42811481  9.95374184  0.262  0.264  0.000
  126 -9.20721552 -9.12002840  8.42336147  9.94788245  0.264  0.266  0.000
  127 -9.20195239 -9.11459581  8.41857096  9.94197724  0.266  0.268  0.000
  128 -9.19664915 -9.10912182  8.41374394  9.93602703  0.268  0.270  0.000
  129 -9.19130581 -9.10360645  8.40888042  9.93003183  0.270  0.272  0.000
  130 -9.18592236 -9.09804968  8.40398040  9.92399164  0.272  0.275  0.000
  131 -9.18049808 -9.09245075  8.39904321  9.91790561  0.275  0.277  0.000
  132 -9.17503369 -9.08681043  8.39406952  9.91177460  0.277  0.279  0.000
  133 -9.16952920 -9.08112871  8.38905932  9.90559859  0.279  0.281  0.000
  134 -9.16398461 -9.07540560  8.38401263  9.89937758  0.281  0.283  0.000
  135 -9.15839991 -9.06964111  8.37892943  9.89311158  0.283  0.285  0.000
  136 -9.15277512 -9.06383522  8.37380974  9.88680059  0.285  0.287  0.000
  137 -9.14710948 -9.05798717  8.36865287  9.88044377  0.287  0.289  0.000
  138 -9.14140448 -9.05209849  8.36346018  9.87404279  0.289  0.292  0.000
  139 -9.13566012 -9.04616919  8.35823166  9.86759765  0.292  0.294  0.000
  140 -9.12987492 -9.04019773  8.35296597  9.86110668  0.294  0.296  0.000
  141 -9.12404962 -9.03418488  8.34766378  9.85457072  0.296  0.298  0.000
  142 -9.11818496 -9.02813141  8.34232576  9.84799060  0.298  0.300  0.000
  143 -9.11228020 -9.02203654  8.33695125  9.84136549  0.300  0.302  0.000
  144 -9.10633608 -9.01590104  8.33154091  9.83469621  0.302  0.304  0.000
  145 -9.10035185 -9.00972416  8.32609407  9.82798194  0.304  0.306  0.000
  146 -9.09432827 -9.00350665  8.32061141  9.82122351  0.306  0.309  0.000
  147 -9.08826459 -8.99724775  8.31509225  9.81442009  0.309  0.311  0.000
  148 -9.08216155 -8.99094822  8.30953726  9.80757251  0.311  0.313  0.000
  149 -9.07601990 -8.98460883  8.30394713  9.80068160  0.313  0.315  0.000
  150 -9.06983740 -8.97822729  8.29831983  9.79374486  0.315  0.317  0.000
  151 -9.06361554 -8.97180512  8.29265670  9.78676396  0.317  0.319  0.000
  152 -9.05735432 -8.96534233  8.28695774  9.77973890  0.319  0.321  0.000
  153 -9.05105375 -8.95883891  8.28122297  9.77266969  0.321  0.324  0.000
  154 -9.04471456 -8.95229563  8.27545304  9.76555714  0.324  0.326  0.000
  155 -9.03833526 -8.94571096  8.26964662  9.75839961  0.326  0.328  0.000
  156 -9.03191736 -8.93908644  8.26380505  9.75119874  0.328  0.330  0.000
  157 -9.02545935 -8.93242052  8.25792698  9.74395288  0.330  0.332  0.000
  158 -9.01896273 -8.92571474  8.25201377  9.73666370  0.332  0.334  0.000
  159 -9.01242600 -8.91896758  8.24606405  9.72932952  0.334  0.336  0.000
  160 -9.00585141 -8.91218132  8.24007987  9.72195285  0.336  0.338  0.000
  161 -8.99923671 -8.90535367  8.23405919  9.71453119  0.338  0.341  0.000
  162 -8.99258414 -8.89848693  8.22800403  9.70706703  0.341  0.343  0.000
  163 -8.98589221 -8.89157956  8.22191306  9.69955872  0.343  0.345  0.000
  164 -8.97916092 -8.88463157  8.21578626  9.69200624  0.345  0.347  0.000
  165 -8.97239176 -8.87764449  8.20962499  9.68441127  0.347  0.349  0.000
  166 -8.96558251 -8.87061602  8.20342722  9.67677131  0.349  0.351  0.000
  167 -8.95873463 -8.86354769  8.19719430  9.66908802  0.351  0.353  0.000
  168 -8.95184888 -8.85644027  8.19092692  9.66136224  0.353  0.355  0.000
  169 -8.94492452 -8.84929300  8.18462439  9.65359313  0.355  0.358  0.000
  170 -8.93796080 -8.84210510  8.17828603  9.64577987  0.358  0.360  0.000
  171 -8.93095847 -8.83487734  8.17191253  9.63792327  0.360  0.362  0.000
  172 -8.92391826 -8.82761049  8.16550456  9.63002419  0.362  0.364  0.000
  173 -8.91683870 -8.82030302  8.15906077  9.62208094  0.364  0.366  0.000
  174 -8.90972126 -8.81295645  8.15258251  9.61409520  0.366  0.368  0.000
  175 -8.90256595 -8.80557080  8.14606978  9.60606697  0.368  0.370  0.000
  176 -8.89537129 -8.79814452  8.13952122  9.59799458  0.370  0.372  0.000
  177 -8.88813875 -8.79067915  8.13293820  9.58987970  0.372  0.375  0.000
  178 -8.88086759 -8.78317393  8.12632003  9.58172149  0.375  0.377  0.000
  179 -8.87355857 -8.77562961  8.11966739  9.57352079  0.377  0.379  0.000
  180 -8.86621167 -8.76804620  8.11298028  9.56527760  0.379  0.381  0.000
  181 -8.85882616 -8.76042294  8.10625803  9.55699108  0.381  0.383  0.000
  182 -8.85140278 -8.75276059  8.09950130  9.54866207  0.383  0.385  0.000
  183 -8.84394227 -8.74505991  8.09271078  9.54029140  0.385  0.387  0.000
  184 -8.83644314 -8.73731938  8.08588512  9.53187740  0.387  0.390  0.000
  185 -8.82890540 -8.72953899  8.07902431  9.52342008  0.390  0.392  0.000
  186 -8.82133053 -8.72172028  8.07212971  9.51492110  0.392  0.394  0.000
  187 -8.81371853 -8.71386324  8.06520131  9.50638046  0.394  0.396  0.000
  188 -8.80606791 -8.70596635  8.05823777  9.49779649  0.396  0.398  0.000
  189 -8.79837943 -8.69803037  8.05123976  9.48917004  0.398  0.400  0.000
  190 -8.79065382 -8.69005606  8.04420796  9.48050192  0.400  0.402  0.000
  191 -8.78289033 -8.68204267  8.03714169  9.47179131  0.402  0.404  0.000
  192 -8.77508972 -8.67399095  8.03004162  9.46303904  0.404  0.407  0.000
  193 -8.76725123 -8.66590014  8.02290709  9.45424429  0.407  0.409  0.000
  194 -8.75937562 -8.65777101  8.01573876  9.44540787  0.409  0.411  0.000
  195 -8.75146213 -8.64960279  8.00853596  9.43652896  0.411  0.413  0.000
  196 -8.74351226 -8.64139702  8.00130005  9.42760923  0.413  0.415  0.000
  197 -8.73552452 -8.63315215  7.99402967  9.41864700  0.415  0.417  0.000
  198 -8.72749965 -8.62486897  7.98672550  9.40964312  0.417  0.419  0.000
  199 -8.71943839 -8.61654822  7.97938821  9.40059841  0.419  0.421  0.000
  200 -8.71133926 -8.60818839  7.97201645  9.39151120  0.421  0.424  0.000
  201 -8.70320300 -8.59979024  7.96461090  9.38238234  0.424  0.426  0.000
  202 -8.69502962 -8.59135376  7.95717155  9.37321183  0.426  0.428  0.000
  203 -8.68681985 -8.58287973  7.94969909  9.36400048  0.428  0.430  0.000
  204 -8.67857295 -8.57436737  7.94219284  9.35474748  0.430  0.432  0.000
  205 -8.67028967 -8.56581746  7.93465347  9.34545366  0.432  0.434  0.000
  206 -8.66196926 -8.55722923  7.92708031  9.33611818  0.434  0.436  0.000
  207 -8.65361172 -8.54860268  7.91947336  9.32674103  0.436  0.438  0.000
  208 -8.64521854 -8.53993934  7.91183397  9.31732390  0.438  0.441  0.000
  209 -8.63678823 -8.53123767  7.90416079  9.30786511  0.441  0.443  0.000
  210 -8.62832079 -8.52249769  7.89645381  9.29836466  0.443  0.445  0.000
  211 -8.61981771 -8.51372091  7.88871440  9.28882422  0.445  0.447  0.000
  212 -8.61127824 -8.50490658  7.88094187  9.27924296  0.447  0.449  0.000
  213 -8.60270165 -8.49605393  7.87313554  9.26962004  0.449  0.451  0.000
  214 -8.59409016 -8.48716526  7.86529746  9.25995796  0.451  0.453  0.000
  215 -8.58544154 -8.47823827  7.85742558  9.25025422  0.453  0.455  0.000
  216 -8.57675653 -8.46927372  7.84952059  9.24050966  0.455  0.458  0.000
  217 -8.56803588 -8.46027238  7.84158316  9.23072511  0.458  0.460  0.000
  218 -8.55927885 -8.45123349  7.83361261  9.22089973  0.460  0.462  0.000
  219 -8.55048618 -8.44215781  7.82560963  9.21103437  0.462  0.464  0.000
  220 -8.54165786 -8.43304535  7.81757420  9.20112901  0.464  0.466  0.000
  221 -8.53279242 -8.42389456  7.80950498  9.19118199  0.466  0.468  0.000
  222 -8.52389282 -8.41470852  7.80140468  9.18119666  0.468  0.470  0.000
  223 -8.51495609 -8.40548415  7.79327059  9.17116966  0.470  0.473  0.000
  224 -8.50598447 -8.39622377  7.78510473  9.16110351  0.473  0.475  0.000
  225 -8.49697720 -8.38692660  7.77690644  9.15099736  0.475  0.477  0.000
  226 -8.48793355 -8.37759188  7.76867503  9.14085040  0.477  0.479  0.000
  227 -8.47885574 -8.36822190  7.76041253  9.13066511  0.479  0.481  0.000
  228 -8.46974155 -8.35881437  7.75211692  9.12043899  0.481  0.483  0.000
  229 -8.46059172 -8.34937005  7.74378888  9.11017289  0.483  0.485  0.000
  230 -8.45140773 -8.33989047  7.73542974  9.09986846  0.485  0.487  0.000
  231 -8.44218810 -8.33037411  7.72703817  9.08952404  0.487  0.490  0.000
  232 -8.43293282 -8.32082097  7.71861416  9.07913963  0.490  0.492  0.000
  233 -8.42364265 -8.31123180  7.71015839  9.06871607  0.492  0.494  0.000
  234 -8.41431759 -8.30160662  7.70167085  9.05825335  0.494  0.496  0.000
  235 -8.40495762 -8.29194541  7.69315156  9.04775147  0.496  0.498  0.000
  236 -8.39556201 -8.28224742  7.68459982  9.03720960  0.498  0.500  0.000
  237 -8.38613225 -8.27251417  7.67601700  9.02662941  0.500  0.502  0.000
  238 -8.37666684 -8.26274414  7.66740175  9.01600923  0.502  0.504  0.000
  239 -8.36716728 -8.25293885  7.65875541  9.00535073  0.504  0.507  0.000
  240 -8.35763357 -8.24309832  7.65007798  8.99465390  0.507  0.509  0.000
  241 -8.34806421 -8.23322099  7.64136812  8.98391709  0.509  0.511  0.000
  242 -8.33846070 -8.22330842  7.63262717  8.97314195  0.511  0.513  0.000
  243 -8.32882304 -8.21336059  7.62385513  8.96232849  0.513  0.515  0.000
  244 -8.31915121 -8.20337750  7.61505201  8.95147671  0.515  0.517  0.000
  245 -8.30944450 -8.19335840  7.60621713  8.94058577  0.517  0.519  0.000
  246 -8.29970362 -8.18330405  7.59735117  8.92965651  0.519  0.521  0.000
  247 -8.28992859 -8.17321445  7.58845412  8.91868892  0.521  0.524  0.000
  248 -8.28011941 -8.16308959  7.57952598  8.90768302  0.524  0.526  0.000
  249 -8.27027607 -8.15292948  7.57056676  8.89663879  0.526  0.528  0.000
  250 -8.26039858 -8.14273412  7.56157646  8.88555624  0.528  0.530  0.000
  251 -8.25048767 -8.13250427  7.55255575  8.87443620  0.530  0.532  0.000
  252 -8.24054261 -8.12223918  7.54350396  8.86327783  0.532  0.534  0.000
  253 -8.23056340 -8.11193883  7.53442108  8.85208115  0.534  0.536  0.000
  254 -8.22055152 -8.10160476  7.52530847  8.84084781  0.536  0.538  0.000
  255 -8.21050548 -8.09123544  7.51616477  8.82957615  0.538  0.541  0.000
  256 -8.20042529 -8.08083087  7.50698999  8.81826617  0.541  0.543  0.000
  257 -8.19031169 -8.07039181  7.49778480  8.80691870  0.543  0.545  0.000
  258 -8.18016542 -8.05991904  7.48854989  8.79553457  0.545  0.547  0.000
  259 -8.16998499 -8.04941102  7.47928389  8.78411212  0.547  0.549  0.000
  260 -8.15977115 -8.03886851  7.46998748  8.77265219  0.549  0.551  0.000
  261 -8.14952465 -8.02829228  7.46066134  8.76115560  0.551  0.553  0.000
  262 -8.13924473 -8.01768157  7.45130479  8.74962152  0.553  0.556  0.000
  263 -8.12893141 -8.00703638  7.44191784  8.73804995  0.556  0.558  0.000
  264 -8.11858541 -7.99635747  7.43250115  8.72644173  0.558  0.560  0.000
  265 -8.10820675 -7.98564484  7.42305474  8.71479685  0.560  0.562  0.000
